# q=2.000000e+00 chizA=0.000000e+00 chizB=0.000000e+00 f0=1.000000e+01
# M=1.000000e+00 LambdaA=[0.000000e+00,0.000000e+00,0.000000e+00] LambdaBl2=[0.000000e+00,0.000000e+00,0.000000e+00]
# D=1.000000e+00 phi=0.000000e+00 iota=0.000000e+00
# t:0 real:1 imag:2 Ampli:3 Phase:4
0.000000000e+00 2.630693417207e-01 5.638717924387e-02 0.000000000000e+00 0.000000000000e+00
5.000000000e-01 2.619306523028e-01 6.141990715622e-02 0.000000000000e+00 0.000000000000e+00
1.000000000e+00 2.607037006440e-01 6.643202650566e-02 0.000000000000e+00 0.000000000000e+00
1.500000000e+00 2.593885360935e-01 7.142213276214e-02 0.000000000000e+00 0.000000000000e+00
2.000000000e+00 2.579831818667e-01 7.638813961663e-02 0.000000000000e+00 0.000000000000e+00
2.500000000e+00 2.564857342425e-01 8.132778736798e-02 0.000000000000e+00 0.000000000000e+00
3.000000000e+00 2.548943710458e-01 8.623864573890e-02 0.000000000000e+00 0.000000000000e+00
3.500000000e+00 2.532077638866e-01 9.111826346168e-02 0.000000000000e+00 0.000000000000e+00
4.000000000e+00 2.514262749325e-01 9.596467284430e-02 0.000000000000e+00 0.000000000000e+00
4.500000000e+00 2.495507091105e-01 1.007760608168e-01 0.000000000000e+00 0.000000000000e+00
5.000000000e+00 2.475819041363e-01 1.055506386470e-01 0.000000000000e+00 0.000000000000e+00
5.500000000e+00 2.455207297151e-01 1.102866424710e-01 0.000000000000e+00 0.000000000000e+00
6.000000000e+00 2.433680867354e-01 1.149823337986e-01 0.000000000000e+00 0.000000000000e+00
6.500000000e+00 2.411249064574e-01 1.196359999920e-01 0.000000000000e+00 0.000000000000e+00
7.000000000e+00 2.387921496956e-01 1.242459547191e-01 0.000000000000e+00 0.000000000000e+00
7.500000000e+00 2.363708059980e-01 1.288105383808e-01 0.000000000000e+00 0.000000000000e+00
8.000000000e+00 2.338618928208e-01 1.333281185131e-01 0.000000000000e+00 0.000000000000e+00
8.500000000e+00 2.312664547010e-01 1.377970901624e-01 0.000000000000e+00 0.000000000000e+00
9.000000000e+00 2.285855624267e-01 1.422158762359e-01 0.000000000000e+00 0.000000000000e+00
9.500000000e+00 2.258203114356e-01 1.465829273236e-01 0.000000000000e+00 0.000000000000e+00
1.000000000e+01 2.229717667957e-01 1.508966850264e-01 0.000000000000e+00 0.000000000000e+00
1.050000000e+01 2.200409303960e-01 1.551555517367e-01 0.000000000000e+00 0.000000000000e+00
1.100000000e+01 2.170288268405e-01 1.593579417380e-01 0.000000000000e+00 0.000000000000e+00
1.150000000e+01 2.139365119572e-01 1.635022873336e-01 0.000000000000e+00 0.000000000000e+00
1.200000000e+01 2.107650725133e-01 1.675870394819e-01 0.000000000000e+00 0.000000000000e+00
1.250000000e+01 2.075156259170e-01 1.716106684266e-01 0.000000000000e+00 0.000000000000e+00
1.300000000e+01 2.041893199065e-01 1.755716643234e-01 0.000000000000e+00 0.000000000000e+00
1.350000000e+01 2.007873322248e-01 1.794685378634e-01 0.000000000000e+00 0.000000000000e+00
1.400000000e+01 1.973108702821e-01 1.832998208905e-01 0.000000000000e+00 0.000000000000e+00
1.450000000e+01 1.937611708039e-01 1.870640670158e-01 0.000000000000e+00 0.000000000000e+00
1.500000000e+01 1.901394994675e-01 1.907598522256e-01 0.000000000000e+00 0.000000000000e+00
1.550000000e+01 1.864471505231e-01 1.943857754849e-01 0.000000000000e+00 0.000000000000e+00
1.600000000e+01 1.826854464040e-01 1.979404593348e-01 0.000000000000e+00 0.000000000000e+00
1.650000000e+01 1.788557373222e-01 2.014225504846e-01 0.000000000000e+00 0.000000000000e+00
1.700000000e+01 1.749594008519e-01 2.048307203970e-01 0.000000000000e+00 0.000000000000e+00
1.750000000e+01 1.709978415157e-01 2.081636658871e-01 0.000000000000e+00 0.000000000000e+00
1.800000000e+01 1.669724963477e-01 2.114201173410e-01 0.000000000000e+00 0.000000000000e+00
1.850000000e+01 1.628848424963e-01 2.145988515064e-01 0.000000000000e+00 0.000000000000e+00
1.900000000e+01 1.587363827505e-01 2.176986767297e-01 0.000000000000e+00 0.000000000000e+00
1.950000000e+01 1.545286425547e-01 2.207184305430e-01 0.000000000000e+00 0.000000000000e+00
2.000000000e+01 1.502631694380e-01 2.236569800899e-01 0.000000000000e+00 0.000000000000e+00
2.050000000e+01 1.459415324357e-01 2.265132225400e-01 0.000000000000e+00 0.000000000000e+00
2.100000000e+01 1.415653215028e-01 2.292860854915e-01 0.000000000000e+00 0.000000000000e+00
2.150000000e+01 1.371361469205e-01 2.319745273633e-01 0.000000000000e+00 0.000000000000e+00
2.200000000e+01 1.326556386955e-01 2.345775377741e-01 0.000000000000e+00 0.000000000000e+00
2.250000000e+01 1.281254459520e-01 2.370941379110e-01 0.000000000000e+00 0.000000000000e+00
2.300000000e+01 1.235472363173e-01 2.395233808853e-01 0.000000000000e+00 0.000000000000e+00
2.350000000e+01 1.189226953008e-01 2.418643520764e-01 0.000000000000e+00 0.000000000000e+00
2.400000000e+01 1.142535256670e-01 2.441161694638e-01 0.000000000000e+00 0.000000000000e+00
2.450000000e+01 1.095414468024e-01 2.462779839466e-01 0.000000000000e+00 0.000000000000e+00
2.500000000e+01 1.047881940760e-01 2.483489796511e-01 0.000000000000e+00 0.000000000000e+00
2.550000000e+01 9.999551819559e-02 2.503283742249e-01 0.000000000000e+00 0.000000000000e+00
2.600000000e+01 9.516518447265e-02 2.522154188923e-01 0.000000000000e+00 0.000000000000e+00
2.650000000e+01 9.029897064455e-02 2.540093943360e-01 0.000000000000e+00 0.000000000000e+00
2.700000000e+01 8.539866677339e-02 2.557096111446e-01 0.000000000000e+00 0.000000000000e+00
2.750000000e+01 8.046607629293e-02 2.573154141018e-01 0.000000000000e+00 0.000000000000e+00
2.800000000e+01 7.550301541383e-02 2.588261826115e-01 0.000000000000e+00 0.000000000000e+00
2.850000000e+01 7.051131246063e-02 2.602413309512e-01 0.000000000000e+00 0.000000000000e+00
2.900000000e+01 6.549280720352e-02 2.615603085127e-01 0.000000000000e+00 0.000000000000e+00
2.950000000e+01 6.044935018533e-02 2.627826000297e-01 0.000000000000e+00 0.000000000000e+00
3.000000000e+01 5.538280204385e-02 2.639077257935e-01 0.000000000000e+00 0.000000000000e+00
3.050000000e+01 5.029503282972e-02 2.649352418545e-01 0.000000000000e+00 0.000000000000e+00
3.100000000e+01 4.518792132026e-02 2.658647402117e-01 0.000000000000e+00 0.000000000000e+00
3.150000000e+01 4.006335432932e-02 2.666958489885e-01 0.000000000000e+00 0.000000000000e+00
3.200000000e+01 3.492322601360e-02 2.674282325950e-01 0.000000000000e+00 0.000000000000e+00
3.250000000e+01 2.976943717548e-02 2.680615918780e-01 0.000000000000e+00 0.000000000000e+00
3.300000000e+01 2.460389456280e-02 2.685956642567e-01 0.000000000000e+00 0.000000000000e+00
3.350000000e+01 1.942851016568e-02 2.690302238449e-01 0.000000000000e+00 0.000000000000e+00
3.400000000e+01 1.424520051082e-02 2.693650815608e-01 0.000000000000e+00 0.000000000000e+00
3.450000000e+01 9.055885963255e-03 2.696000855401e-01 0.000000000000e+00 0.000000000000e+00
3.500000000e+01 3.862490002150e-03 2.697351226302e-01 0.000000000000e+00 0.000000000000e+00
3.550000000e+01 -1.333061649293e-03 2.697701173124e-01 0.000000000000e+00 0.000000000000e+00
3.600000000e+01 -6.528841778070e-03 2.697050311637e-01 0.000000000000e+00 0.000000000000e+00
3.650000000e+01 -1.172292239591e-02 2.695398628875e-01 0.000000000000e+00 0.000000000000e+00
3.700000000e+01 -1.691337545450e-02 2.692746483308e-01 0.000000000000e+00 0.000000000000e+00
3.750000000e+01 -2.209827356101e-02 2.689094604875e-01 0.000000000000e+00 0.000000000000e+00
3.800000000e+01 -2.727569069392e-02 2.684444094885e-01 0.000000000000e+00 0.000000000000e+00
3.850000000e+01 -3.244370291853e-02 2.678796425770e-01 0.000000000000e+00 0.000000000000e+00
3.900000000e+01 -3.760038910226e-02 2.672153440709e-01 0.000000000000e+00 0.000000000000e+00
3.950000000e+01 -4.274383162912e-02 2.664517353113e-01 0.000000000000e+00 0.000000000000e+00
4.000000000e+01 -4.787211711342e-02 2.655890745966e-01 0.000000000000e+00 0.000000000000e+00
4.050000000e+01 -5.298333711215e-02 2.646276571037e-01 0.000000000000e+00 0.000000000000e+00
4.100000000e+01 -5.807558883598e-02 2.635678147947e-01 0.000000000000e+00 0.000000000000e+00
4.150000000e+01 -6.314697585855e-02 2.624099163104e-01 0.000000000000e+00 0.000000000000e+00
4.200000000e+01 -6.819560882373e-02 2.611543668500e-01 0.000000000000e+00 0.000000000000e+00
4.250000000e+01 -7.321960615004e-02 2.598016080349e-01 0.000000000000e+00 0.000000000000e+00
4.300000000e+01 -7.821709466634e-02 2.583521175428e-01 0.000000000000e+00 0.000000000000e+00
4.350000000e+01 -8.318621022965e-02 2.568064087667e-01 0.000000000000e+00 0.000000000000e+00
4.400000000e+01 -8.812509850807e-02 2.551650310140e-01 0.000000000000e+00 0.000000000000e+00
4.450000000e+01 -9.303191568679e-02 2.534285693652e-01 0.000000000000e+00 0.000000000000e+00
4.500000000e+01 -9.790482915895e-02 2.515976444748e-01 0.000000000000e+00 0.000000000000e+00
4.550000000e+01 -1.027420182127e-01 2.496729123592e-01 0.000000000000e+00 0.000000000000e+00
4.600000000e+01 -1.075416747144e-01 2.476550641706e-01 0.000000000000e+00 0.000000000000e+00
4.650000000e+01 -1.123020037876e-01 2.455448259586e-01 0.000000000000e+00 0.000000000000e+00
4.700000000e+01 -1.170212244870e-01 2.433429584180e-01 0.000000000000e+00 0.000000000000e+00
4.750000000e+01 -1.216975704686e-01 2.410502566236e-01 0.000000000000e+00 0.000000000000e+00
4.800000000e+01 -1.263292906544e-01 2.386675497521e-01 0.000000000000e+00 0.000000000000e+00
4.850000000e+01 -1.309146498913e-01 2.361957007918e-01 0.000000000000e+00 0.000000000000e+00
4.900000000e+01 -1.354519296055e-01 2.336356062382e-01 0.000000000000e+00 0.000000000000e+00
4.950000000e+01 -1.399394284503e-01 2.309881957781e-01 0.000000000000e+00 0.000000000000e+00
5.000000000e+01 -1.443754629487e-01 2.282544319605e-01 0.000000000000e+00 0.000000000000e+00
5.050000000e+01 -1.487583681290e-01 2.254353098556e-01 0.000000000000e+00 0.000000000000e+00
5.100000000e+01 -1.530864981589e-01 2.225318567073e-01 0.000000000000e+00 0.000000000000e+00
5.150000000e+01 -1.573582270264e-01 2.195451316464e-01 0.000000000000e+00 0.000000000000e+00
5.200000000e+01 -1.615719491441e-01 2.164762252809e-01 0.000000000000e+00 0.000000000000e+00
5.250000000e+01 -1.657260799190e-01 2.133262592444e-01 0.000000000000e+00 0.000000000000e+00
5.300000000e+01 -1.698190563523e-01 2.100963857928e-01 0.000000000000e+00 0.000000000000e+00
5.350000000e+01 -1.738493376324e-01 2.067877873902e-01 0.000000000000e+00 0.000000000000e+00
5.400000000e+01 -1.778154057202e-01 2.034016762836e-01 0.000000000000e+00 0.000000000000e+00
5.450000000e+01 -1.817157659259e-01 1.999392940658e-01 0.000000000000e+00 0.000000000000e+00
5.500000000e+01 -1.855489474781e-01 1.964019112280e-01 0.000000000000e+00 0.000000000000e+00
5.550000000e+01 -1.893135040836e-01 1.927908267002e-01 0.000000000000e+00 0.000000000000e+00
5.600000000e+01 -1.930080144790e-01 1.891073673812e-01 0.000000000000e+00 0.000000000000e+00
5.650000000e+01 -1.966310829729e-01 1.853528876586e-01 0.000000000000e+00 0.000000000000e+00
5.700000000e+01 -2.001813399793e-01 1.815287689171e-01 0.000000000000e+00 0.000000000000e+00
5.750000000e+01 -2.036574425411e-01 1.776364190367e-01 0.000000000000e+00 0.000000000000e+00
5.800000000e+01 -2.070580748444e-01 1.736772718818e-01 0.000000000000e+00 0.000000000000e+00
5.850000000e+01 -2.103819487232e-01 1.696527867785e-01 0.000000000000e+00 0.000000000000e+00
5.900000000e+01 -2.136278041531e-01 1.655644479836e-01 0.000000000000e+00 0.000000000000e+00
5.950000000e+01 -2.167944097293e-01 1.614137641380e-01 0.000000000000e+00 0.000000000000e+00
6.000000000e+01 -2.198805631189e-01 1.572022677021e-01 0.000000000000e+00 0.000000000000e+00
6.050000000e+01 -2.228850915437e-01 1.529315144130e-01 0.000000000000e+00 0.000000000000e+00
6.100000000e+01 -2.258068522393e-01 1.486030827210e-01 0.000000000000e+00 0.000000000000e+00
6.150000000e+01 -2.286447328961e-01 1.442185732119e-01 0.000000000000e+00 0.000000000000e+00
6.200000000e+01 -2.313976520910e-01 1.397796080205e-01 0.000000000000e+00 0.000000000000e+00
6.250000000e+01 -2.340645597059e-01 1.352878302363e-01 0.000000000000e+00 0.000000000000e+00
6.300000000e+01 -2.366444373361e-01 1.307449033005e-01 0.000000000000e+00 0.000000000000e+00
6.350000000e+01 -2.391362986866e-01 1.261525103948e-01 0.000000000000e+00 0.000000000000e+00
6.400000000e+01 -2.415391899566e-01 1.215123538234e-01 0.000000000000e+00 0.000000000000e+00
6.450000000e+01 -2.438521902124e-01 1.168261543861e-01 0.000000000000e+00 0.000000000000e+00
6.500000000e+01 -2.460744117482e-01 1.120956507455e-01 0.000000000000e+00 0.000000000000e+00
6.550000000e+01 -2.482050004340e-01 1.073225987859e-01 0.000000000000e+00 0.000000000000e+00
6.600000000e+01 -2.502431360527e-01 1.025087709667e-01 0.000000000000e+00 0.000000000000e+00
6.650000000e+01 -2.521880326229e-01 9.765595566738e-02 0.000000000000e+00 0.000000000000e+00
6.700000000e+01 -2.540389387109e-01 9.276595652817e-02 0.000000000000e+00 0.000000000000e+00
6.750000000e+01 -2.557951377283e-01 8.784059178302e-02 0.000000000000e+00 0.000000000000e+00
6.800000000e+01 -2.574559482237e-01 8.288169358895e-02 0.000000000000e+00 0.000000000000e+00
6.850000000e+01 -2.590207241565e-01 7.789110734814e-02 0.000000000000e+00 0.000000000000e+00
6.900000000e+01 -2.604888551507e-01 7.287069102216e-02 0.000000000000e+00 0.000000000000e+00
6.950000000e+01 -2.618597667400e-01 6.782231444331e-02 0.000000000000e+00 0.000000000000e+00
7.000000000e+01 -2.631329206014e-01 6.274785862129e-02 0.000000000000e+00 0.000000000000e+00
7.050000000e+01 -2.643078147745e-01 5.764921504520e-02 0.000000000000e+00 0.000000000000e+00
7.100000000e+01 -2.653839838679e-01 5.252828498127e-02 0.000000000000e+00 0.000000000000e+00
7.150000000e+01 -2.663609992518e-01 4.738697876637e-02 0.000000000000e+00 0.000000000000e+00
7.200000000e+01 -2.672384692370e-01 4.222721509779e-02 0.000000000000e+00 0.000000000000e+00
7.250000000e+01 -2.680160392403e-01 3.705092031940e-02 0.000000000000e+00 0.000000000000e+00
7.300000000e+01 -2.686933919362e-01 3.186002770449e-02 0.000000000000e+00 0.000000000000e+00
7.350000000e+01 -2.692702473941e-01 2.665647673556e-02 0.000000000000e+00 0.000000000000e+00
7.400000000e+01 -2.697463632026e-01 2.144221238137e-02 0.000000000000e+00 0.000000000000e+00
7.450000000e+01 -2.701215345787e-01 1.621918437148e-02 0.000000000000e+00 0.000000000000e+00
7.500000000e+01 -2.703955944644e-01 1.098934646846e-02 0.000000000000e+00 0.000000000000e+00
7.550000000e+01 -2.705684136077e-01 5.754655738254e-03 0.000000000000e+00 0.000000000000e+00
7.600000000e+01 -2.706399006301e-01 5.170718187726e-04 0.000000000000e+00 0.000000000000e+00
7.650000000e+01 -2.706100020785e-01 -4.721443813097e-03 0.000000000000e+00 0.000000000000e+00
7.700000000e+01 -2.704787024652e-01 -9.958928575153e-03 0.000000000000e+00 0.000000000000e+00
7.750000000e+01 -2.702460242941e-01 -1.519341951456e-02 0.000000000000e+00 0.000000000000e+00
7.800000000e+01 -2.699120280716e-01 -2.042295404327e-02 0.000000000000e+00 0.000000000000e+00
7.850000000e+01 -2.694768123034e-01 -2.564557067382e-02 0.000000000000e+00 0.000000000000e+00
7.900000000e+01 -2.689405134767e-01 -3.085930975514e-02 0.000000000000e+00 0.000000000000e+00
7.950000000e+01 -2.683033060284e-01 -3.606221420812e-02 0.000000000000e+00 0.000000000000e+00
8.000000000e+01 -2.675654022991e-01 -4.125233026074e-02 0.000000000000e+00 0.000000000000e+00
8.050000000e+01 -2.667270524725e-01 -4.642770818237e-02 0.000000000000e+00 0.000000000000e+00
8.100000000e+01 -2.657885445012e-01 -5.158640301704e-02 0.000000000000e+00 0.000000000000e+00
8.150000000e+01 -2.647502040176e-01 -5.672647531538e-02 0.000000000000e+00 0.000000000000e+00
8.200000000e+01 -2.636123942309e-01 -6.184599186494e-02 0.000000000000e+00 0.000000000000e+00
8.250000000e+01 -2.623755158102e-01 -6.694302641869e-02 0.000000000000e+00 0.000000000000e+00
8.300000000e+01 -2.610400067532e-01 -7.201566042127e-02 0.000000000000e+00 0.000000000000e+00
8.350000000e+01 -2.596063422405e-01 -7.706198373290e-02 0.000000000000e+00 0.000000000000e+00
8.400000000e+01 -2.580750344768e-01 -8.208009535055e-02 0.000000000000e+00 0.000000000000e+00
8.450000000e+01 -2.564466325171e-01 -8.706810412629e-02 0.000000000000e+00 0.000000000000e+00
8.500000000e+01 -2.547217220800e-01 -9.202412948265e-02 0.000000000000e+00 0.000000000000e+00
8.550000000e+01 -2.529009253461e-01 -9.694630212364e-02 0.000000000000e+00 0.000000000000e+00
8.600000000e+01 -2.509849007424e-01 -1.018327647423e-01 0.000000000000e+00 0.000000000000e+00
8.650000000e+01 -2.489743427139e-01 -1.066816727245e-01 0.000000000000e+00 0.000000000000e+00
8.700000000e+01 -2.468699814811e-01 -1.114911948477e-01 0.000000000000e+00 0.000000000000e+00
8.750000000e+01 -2.446725827838e-01 -1.162595139764e-01 0.000000000000e+00 0.000000000000e+00
8.800000000e+01 -2.423829476115e-01 -1.209848277514e-01 0.000000000000e+00 0.000000000000e+00
8.850000000e+01 -2.400019119206e-01 -1.256653492745e-01 0.000000000000e+00 0.000000000000e+00
8.900000000e+01 -2.375303463378e-01 -1.302993077883e-01 0.000000000000e+00 0.000000000000e+00
8.950000000e+01 -2.349691558512e-01 -1.348849493494e-01 0.000000000000e+00 0.000000000000e+00
9.000000000e+01 -2.323192794868e-01 -1.394205374968e-01 0.000000000000e+00 0.000000000000e+00
9.050000000e+01 -2.295816899739e-01 -1.439043539128e-01 0.000000000000e+00 0.000000000000e+00
9.100000000e+01 -2.267573933955e-01 -1.483346990789e-01 0.000000000000e+00 0.000000000000e+00
9.150000000e+01 -2.238474288280e-01 -1.527098929243e-01 0.000000000000e+00 0.000000000000e+00
9.200000000e+01 -2.208528679667e-01 -1.570282754672e-01 0.000000000000e+00 0.000000000000e+00
9.250000000e+01 -2.177748147397e-01 -1.612882074501e-01 0.000000000000e+00 0.000000000000e+00
9.300000000e+01 -2.146144049088e-01 -1.654880709662e-01 0.000000000000e+00 0.000000000000e+00
9.350000000e+01 -2.113728056584e-01 -1.696262700798e-01 0.000000000000e+00 0.000000000000e+00
9.400000000e+01 -2.080512151729e-01 -1.737012314371e-01 0.000000000000e+00 0.000000000000e+00
9.450000000e+01 -2.046508622015e-01 -1.777114048704e-01 0.000000000000e+00 0.000000000000e+00
9.500000000e+01 -2.011730056113e-01 -1.816552639927e-01 0.000000000000e+00 0.000000000000e+00
9.550000000e+01 -1.976189339292e-01 -1.855313067847e-01 0.000000000000e+00 0.000000000000e+00
9.600000000e+01 -1.939899648715e-01 -1.893380561726e-01 0.000000000000e+00 0.000000000000e+00
9.650000000e+01 -1.902874448636e-01 -1.930740605967e-01 0.000000000000e+00 0.000000000000e+00
9.700000000e+01 -1.865127485468e-01 -1.967378945714e-01 0.000000000000e+00 0.000000000000e+00
9.750000000e+01 -1.826672782758e-01 -2.003281592349e-01 0.000000000000e+00 0.000000000000e+00
9.800000000e+01 -1.787524636044e-01 -2.038434828897e-01 0.000000000000e+00 0.000000000000e+00
9.850000000e+01 -1.747697607612e-01 -2.072825215333e-01 0.000000000000e+00 0.000000000000e+00
9.900000000e+01 -1.707206521144e-01 -2.106439593786e-01 0.000000000000e+00 0.000000000000e+00
9.950000000e+01 -1.666066456269e-01 -2.139265093639e-01 0.000000000000e+00 0.000000000000e+00
1.000000000e+02 -1.624292743013e-01 -2.171289136529e-01 0.000000000000e+00 0.000000000000e+00
1.005000000e+02 -1.581900956148e-01 -2.202499441232e-01 0.000000000000e+00 0.000000000000e+00
1.010000000e+02 -1.538906909449e-01 -2.232884028447e-01 0.000000000000e+00 0.000000000000e+00
1.015000000e+02 -1.495326649853e-01 -2.262431225467e-01 0.000000000000e+00 0.000000000000e+00
1.020000000e+02 -1.451176451532e-01 -2.291129670738e-01 0.000000000000e+00 0.000000000000e+00
1.025000000e+02 -1.406472809871e-01 -2.318968318293e-01 0.000000000000e+00 0.000000000000e+00
1.030000000e+02 -1.361232435366e-01 -2.345936442089e-01 0.000000000000e+00 0.000000000000e+00
1.035000000e+02 -1.315472247428e-01 -2.372023640206e-01 0.000000000000e+00 0.000000000000e+00
1.040000000e+02 -1.269209368110e-01 -2.397219838943e-01 0.000000000000e+00 0.000000000000e+00
1.045000000e+02 -1.222461115756e-01 -2.421515296783e-01 0.000000000000e+00 0.000000000000e+00
1.050000000e+02 -1.175244998563e-01 -2.444900608239e-01 0.000000000000e+00 0.000000000000e+00
1.055000000e+02 -1.127578708076e-01 -2.467366707577e-01 0.000000000000e+00 0.000000000000e+00
